ID,Count
18288,487.97268409735403
18312,491.6209338594933
18336,493.5152132017356
18360,495.48167436126187
18384,497.453599155913
18408,499.4334585433552
18432,501.421194578458
18456,503.416841882481
18480,505.4204318225194
18504,507.4319960144933
18528,509.4515661956215
18552,511.4791742296023
18576,513.5148521069445
18600,515.5586319454791
18624,517.6105459908653
18648,519.6706266170994
18672,521.7389063270258
18696,523.8154177528495
18720,525.9001936566511
18744,527.9932669309039
18768,530.0946705989923
18792,532.2044378157333
18816,534.3226018678996
18840,536.4491961747445
18864,538.5842542885296
18888,540.7278098950534
18912,542.8798968141837
18936,545.0405490003906
18960,547.2098005432823
18984,549.3876856681433
19008,551.5742387364737
19032,553.7694942465323
19056,555.9734868338797
19080,558.186251271926
19104,560.4078224724785
19128,562.638235486293
19152,564.8775255036264
19176,567.1257278547927
19200,569.3828780107194
19224,571.649011583508
19248,573.9241643269953
19272,576.2083721373178
19296,578.5016710534782
19320,580.8040972579133
19344,583.1156870770658
19368,585.4364769819567
19392,587.7665035887612
19416,590.1058036593861
19440,592.4544141020498
19464,594.812371971865
19488,597.179714471423
19512,599.5564789513808
19536,601.94270291105
19560,604.3384239989892
19584,606.7436800135974
19608,609.1585089037106
19632,611.5829487692005
19656,614.0170378615753
19680,616.460814584584
19704,618.9143174948215
19728,621.3775853023374
19752,623.8506568712464
19776,626.3335712203419
19800,628.8263675237114
19824,631.3290851113543
19848,633.8417634698029
19872,636.3644422427452
19896,638.8971612316502
19920,641.4399603963963
19944,643.9928798559012
19968,646.5559598887552
19992,649.1292409338569
20016,651.7127635910508
20040,654.3065686217681
20064,656.9106969496697
20088,659.5251896612921
20112,662.1500880066952
20136,664.7854334001137
20160,667.4312674206099
20184,670.0876318127301
20208,672.7545684871635
20232,675.4321195214026
20256,678.1203271604078
20280,680.8192338172736
20304,683.528882073898
20328,686.2493146816539
20352,688.9805745620642
20376,691.7227048074785
20400,694.4757486817533
20424,697.2397496209343
20448,700.014751233942
20472,702.8007973032595
20496,705.5979317856236
20520,708.4061988127179
20544,711.2256426918694
20568,714.0563079067476
20592,716.8982391180659
20616,719.7514811642868
20640,722.6160790623289
20664,725.4920780082775
20688,728.3795233780972
20712,731.2784607283485
20736,734.1889357969059
20760,737.1109945036799
20784,740.0446829513414
20808,742.9900474260493
20832,745.9471343981802
20856,748.9159905230623
20880,751.896662641711
20904,754.8891977815681
20928,757.8936431572438
20952,760.9100461712616
20976,763.9384544148061
21000,766.9789156684741
21024,770.0314779030283
21048,773.096189280154
21072,776.1730981532194
21096,779.2622530680379
21120,782.3637027636347
21144,785.4774961730152
21168,788.6036824239372
21192,791.7423108396865
21216,794.8934309398544
21240,798.0570924411193
21264,801.233345258031
21288,804.4222395037986
21312,807.6238254910804
21336,810.8381537327787
21360,814.0652749428358
21384,817.3052400370348
21408,820.5581001338027
21432,823.8239065550168
21456,827.1027108268148
21480,830.3945646804071
21504,833.6995200528937
21528,837.0176290880833
21552,840.3489441373157
21576,843.6935177602885
21600,847.0514027258857
21624,850.4226520130106
21648,853.8073188114216
21672,857.2054565225712
21696,860.617118760449
21720,864.0423593524271
21744,867.4812323401095
21768,870.9337919801851
21792,874.4000927452832
21816,877.8801893248334
21840,881.3741366259279
21864,884.8819897741885
21888,888.4038041146356
21912,891.9396352125622
21936,895.4895388544098
21960,899.0535710486492
21984,902.6317880266639
22008,906.224246243637
22032,909.8310023794425
22056,913.452113339539
22080,917.0876362558681
22104,920.7376284877554
22128,924.4021476228154
22152,928.0812514778605
22176,931.7749980998128
22200,935.4834457666203
22224,939.206652988176
22248,942.9446785072412
22272,946.6975813003725
22296,950.465420578852
22320,954.2482557896217
22344,958.0461466162212
22368,961.8591529797299
22392,965.6873350397115
22416,969.5307531951639
22440,973.3894680854722
22464,977.2635405913647
22488,981.1530318358742
22512,985.0580031853019
22536,988.9785162501859
22560,992.914632886273
22584,996.8664151954949
22608,1000.8339255269478
22632,1004.8172264778761
22656,1008.8163808946603
22680,1012.831451873808
22704,1016.86250276295
22728,1020.9095971618398
22752,1024.9727989233563
22776,1029.052172154512
22800,1033.1477812174637
22824,1037.2596907305292
22848,1041.3879655692056
22872,1045.532670867193
22896,1049.693872017423
22920,1053.8716346730896
22944,1058.0660247486853
22968,1062.2771084210412
22992,1066.504952130371
23016,1070.7496225813193
23040,1075.0111867440135
23064,1079.2897118551216
23088,1083.585265418912
23112,1087.8979152083189
23136,1092.2277292660115
23160,1096.5747759054675
23184,1100.9391237120512
23208,1105.3208415440956
23232,1109.7199985339882
23256,1114.1366640892622
23280,1118.5709078936918
23304,1123.022799908391
23328,1127.4924103729184
23352,1131.979809806384
23376,1136.4850690085632
18289,367.43750489699687
18313,370.07804713296304
18337,371.3058283444377
18361,372.6008557328652
18385,373.89760173381717
18409,375.1989846595088
18433,376.50489167312224
18457,377.8153442329253
18481,379.13035790706476
18505,380.4499485820319
18529,381.7741321879135
18553,383.10292471076036
18577,384.43634219224083
18601,385.77440072985854
18625,387.11711647714554
18649,388.4645056438575
18673,389.8165844961692
18697,391.17336935687115
18721,392.53487660556647
18745,393.9011226788686
18769,395.27212407059994
18793,396.6478973319907
18817,398.0284590718789
18841,399.41382595691084
18865,400.8040147117423
18889,402.1990421192404
18913,403.5989250206863
18937,405.00368031597833
18961,406.4133249638363
18985,407.827875982006
19009,409.24735044746467
19033,410.6717654966273
19057,412.10113832555334
19081,413.5354861901544
19105,414.97482640640254
19129,416.4191763505393
19153,417.8685534592856
19177,419.3229752300519
19201,420.78245922114985
19225,422.247023052004
19249,423.71668440336464
19273,425.19146101752114
19297,426.6713706985162
19321,428.1564313123609
19345,429.64666078725
19369,431.1420771137789
19393,432.6426983451604
19417,434.14854259744294
19441,435.65962804972906
19465,437.17597294439514
19489,438.6975955873113
19513,440.22451434806266
19537,441.756747660171
19561,443.29431402131735
19585,444.8372319935651
19609,446.3855202035845
19633,447.93919734287704
19657,449.4982821680015
19681,451.06279350080007
19705,452.63275022862587
19729,454.2081713045707
19753,455.7890757476941
19777,457.37548264325267
19801,458.96741114293076
19825,460.5648804650715
19849,462.1679098949088
19873,463.7765187848003
19897,465.3907265544609
19921,467.01055269119723
19945,468.6360167501429
19969,470.26713835449453
19993,471.90393719574877
20017,473.54643303393993
20041,475.1946456978785
20065,476.8485950853907
20089,478.5083011635584
20113,480.17378396896044
20137,481.8450636079145
20161,483.52216025671964
20185,485.20509416190004
20209,486.89388564044935
20233,488.58855508007605
20257,490.28912293944944
20281,491.9956097484467
20305,493.70803610840085
20329,495.4264226923492
20353,497.15079024528313
20377,498.88115958439846
20401,500.6175515993467
20425,502.3599872524875
20449,504.10848757914124
20473,505.8630736878435
20497,507.62376676059955
20521,509.39058805314016
20545,511.1635588951782
20569,512.9427006906662
20593,514.7280349180547
20617,516.5195831305515
20641,518.3173669563818
20665,520.1214080990495
20689,521.9317283375993
20713,523.7483495268792
20737,525.5712935978047
20761,527.4005825576234
20785,529.2362384901805
20809,531.0782835561862
20833,532.926739993482
20857,534.7816301173102
20881,536.642976320583
20905,538.5108010741524
20929,540.385126927082
20953,542.2659765069192
20977,544.1533725199679
21001,546.0473377515633
21025,547.9478950663463
21049,549.8550674085401
21073,551.7688778022267
21097,553.6893493516252
21121,555.6165052413705
21145,557.5503687367935
21169,559.4909631842017
21193,561.438312011161
21217,563.3924387267787
21241,565.3533669219872
21265,567.3211202698292
21289,569.2957225257426
21313,571.2771975278481
21337,573.2655691972368
21361,575.2608615382586
21385,577.2630986388126
21409,579.2723046706374
21433,581.2885038896031
21457,583.3117206360042
21481,585.3419793348532
21505,587.3793044961758
21529,589.4237207153064
21553,591.4752526731855
21577,593.5339251366572
21601,595.5997629587686
21625,597.6727910790693
21649,599.7530345239131
21673,601.8405184067599
21697,603.9352679284784
21721,606.0373083776512
21745,608.1466651308795
21769,610.2633636530894
21793,612.3874294978398
21817,614.5188883076304
21841,616.6577658142116
21865,618.8040878388952
21889,620.9578802928654
21913,623.1191691774927
21937,625.287980584647
21961,627.4643406970129
21985,629.6482757884056
22009,631.8398122240885
22033,634.038976461091
22057,636.2457950485281
22081,638.4602946279209
22105,640.6825019335184
22129,642.9124437926201
22153,645.1501471258997
22177,647.3956389477303
22201,649.6489463665105
22225,651.9100965849916
22249,654.1791169006061
22273,656.4560347057973
22297,658.7408774883496
22321,661.0336728317209
22345,663.3344484153752
22369,665.6432320151168
22393,667.960051503426
22417,670.2849348497949
22441,672.6179101210657
22465,674.9590054817692
22489,677.3082491944648
22513,679.665669620082
22537,682.0312952182624
22561,684.4051545477034
22585,686.7872762665033
22609,689.1776891325067
22633,691.5764220036519
22657,693.9835038383197
22681,696.3989636956825
22705,698.8228307360549
22729,701.2551342212466
22753,703.695903514915
22777,706.1451680829196
22801,708.6029574936781
22825,711.0693014185234
22849,713.5442296320614
22873,716.0277720125307
22897,718.5199585421634
22921,721.0208193075467
22945,723.5303844999867
22969,726.0486844158721
22993,728.5757494570407
23017,731.1116101311461
23041,733.6562970520257
23065,736.2098409400709
23089,738.7722726225975
23113,741.343623034218
23137,743.9239232172151
23161,746.5132043219164
23185,749.1114976070705
23209,751.7188344402243
23233,754.3352462981017
23257,756.9607647669835
23281,759.5954215430893
23305,762.2392484329591
23329,764.8922773538384
23353,767.5545403340625
23377,770.2260695134439
18290,318.64377950981475
18314,321.33279189740483
18338,322.2387709454679
18362,323.27157752052494
18386,324.2990937194448
18410,325.33047086835575
18434,326.36508697031275
18458,327.40299620663114
18482,328.44420601438384
18506,329.4887271000994
18530,330.53656997980255
18554,331.58774521849625
18578,332.64226341370767
18602,333.7001351967406
18626,334.7613712327035
18650,335.8259822206225
18674,336.8939788935488
18698,337.9653720186669
18722,339.0401723974033
18746,340.1183908655351
18770,341.20003829329966
18794,342.2851255855038
18818,343.37366368163396
18842,344.46566355596644
18866,345.561136217678
18890,346.66009271095686
18914,347.7625441151141
18938,348.8685015446954
18962,349.9779761495928
18986,351.0909791151575
19010,352.20752166231244
19034,353.32761504766535
19058,354.45127056362236
19082,355.57849953850183
19106,356.7093133366485
19130,357.8437233585481
19154,358.9817410409424
19178,360.12337785694416
19202,361.2686453161532
19226,362.41755496477225
19250,363.57011838572333
19274,364.7263471987646
19298,365.88625306060743
19322,367.04984766503406
19346,368.21714274301536
19370,369.388150062829
19394,370.56288143017844
19418,371.7413486883116
19442,372.92356371814043
19466,374.1095384383607
19490,375.29928480557203
19514,376.49281481439857
19538,377.69014049760995
19562,378.8912739262424
19586,380.09622720972055
19610,381.3050124959797
19634,382.517641971588
19658,383.73412786186935
19682,384.95448243102686
19706,386.17871798226633
19730,387.4068468579203
19754,388.6388814395725
19778,389.8748341481827
19802,391.11471744421186
19826,392.35854382774795
19850,393.6063258386316
19874,394.858076056583
19898,396.1138071013283
19922,397.373531632727
19946,398.63726235089973
19970,399.90501199635605
19994,401.176793350123
20018,402.452619233874
20042,403.732502510058
20066,405.0164560820293
20090,406.30449289417754
20114,407.5966259320582
20138,408.89286822252353
20162,410.19323283385387
20186,411.4977328758894
20210,412.80638150016244
20234,414.1191919000298
20258,415.43617731080604
20282,416.75735100989664
20306,418.0827263169321
20330,419.4123165939021
20354,420.74613524529025
20378,422.0841957182091
20402,423.42651150253596
20426,424.77309613104876
20450,426.1239631795624
20474,427.47912626706574
20498,428.8385990558589
20522,430.20239525169086
20546,431.5705286038979
20570,432.943012905542
20594,434.31986199354986
20618,435.70108974885255
20642,437.08671009652545
20666,438.47673700592856
20690,439.87118449084727
20714,441.27006660963383
20738,442.673397465349
20762,444.08119120590413
20786,445.49346202420395
20810,446.9102241582895
20834,448.33149189148185
20858,449.757279552526
20882,451.18760151573525
20906,452.62247220113636
20930,454.0619060746147
20954,455.5059176480601
20978,456.9545214795134
21002,458.407732173313
21026,459.86556438024195
21050,461.32803279767614
21074,462.795152169732
21098,464.26693728741526
21122,465.74340298877036
21146,467.2245641590296
21170,468.71043573076366
21194,470.20103268403165
21218,471.69637004653254
21242,473.19646289375646
21266,474.7013263491368
21290,476.2109755842026
21314,477.7254258187314
21338,479.24469232090314
21362,480.76879040745337
21386,482.2977354438283
21410,483.83154284433937
21434,485.37022807231875
21458,486.9138066402753
21482,488.46229411005083
21506,490.01570609297704
21530,491.574058250033
21554,493.1373662920028
21578,494.7056459796343
21602,496.2789131237977
21626,497.85718358564503
21650,499.44047327677026
21674,501.02879815936944
21698,502.6221742464017
21722,504.2206176017508
21746,505.8241443403869
21770,507.4327706285293
21794,509.046512683809
21818,510.6653867754327
21842,512.2894092243464
21866,513.9185964034002
21890,515.5529647375132
21914,517.1925307038392
21938,518.8373108319329
21962,520.4873217039162
21986,522.142579954646
22010,523.803102271881
22034,525.4689053964509
22058,527.1400061224243
22082,528.8164212972789
22106,530.4981678220706
22130,532.1852626516043
22154,533.8777227946046
22178,535.5755653138874
22202,537.2788073265322
22226,538.9874660040539
22250,540.7015585725769
22274,542.421102313008
22298,544.1461145612108
22322,545.8766127081807
22346,547.6126142002202
22370,549.3541365391144
22394,551.1011972823079
22418,552.8538140430818
22442,554.6120044907308
22466,556.3757863507417
22490,558.1451774049722
22514,559.9201954918299
22538,561.7008585064523
22562,563.4871844008871
22586,565.2791911842735
22610,567.0768969230232
22634,568.8803197410031
22658,570.6894778197175
22682,572.5043893984919
22706,574.3250727746566
22730,576.1515463037314
22754,577.98382839961
22778,579.8219375347468
22802,581.6658922403418
22826,583.5157111065286
22850,585.3714127825608
22874,587.2330159770011
22898,589.1005394579088
22922,590.9740020530298
22946,592.8534226499863
22970,594.7388201964668
22994,596.6302137004175
23018,598.5276222302338
23042,600.4310649149527
23066,602.3405609444453
23090,604.2561295696108
23114,606.1777901025702
23138,608.1055619168607
23162,610.0394644476319
23186,611.9795171918408
23210,613.9257397084493
23234,615.8781516186203
23258,617.8367726059165
23282,619.8016224164983
23306,621.7727208593229
23330,623.7500878063444
23354,625.7337431927135
23378,627.7237070169792
18291,255.05874784955236
18315,257.00688340399154
18339,257.7539259772922
18363,258.573094802982
18387,259.3908235512071
18411,260.211371994542
18435,261.0345026318273
18459,261.8602378711665
18483,262.6885851288757
18507,263.51955271515095
18531,264.35314891617764
18555,265.1893820472594
18579,266.028260449836
18603,266.8697924917434
18627,267.71398656728724
18651,268.560851097327
18675,269.41039452935996
18699,270.2626253376057
18723,271.1175520230903
18747,271.9751831137313
18771,272.83552716442284
18795,273.6985927571208
18819,274.5643885009287
18843,275.43292303218317
18867,276.30420501454046
18891,277.17824313906266
18915,278.0550461243045
18939,278.9346227164003
18963,279.81698168915113
18987,280.70213184411233
19011,281.5900820106815
19035,282.4808410461863
19059,283.374417835973
19083,284.27082129349515
19107,285.17006036040215
19131,286.0721440066289
19155,286.97708123048494
19179,287.8848810587444
19203,288.79555254673585
19227,289.7091047784329
19251,290.62554686654454
19275,291.54488795260625
19299,292.467137207071
19323,293.39230382940093
19347,294.3203970481589
19371,295.2514261211007
19395,296.18540033526733
19419,297.1223290070777
19443,298.06222148242153
19467,299.0050871367525
19491,299.95093537518176
19515,300.899775632572
19539,301.8516173736313
19563,302.80647009300765
19587,303.76434331538354
19611,304.72524659557115
19635,305.6891895186076
19659,306.6561816998504
19683,307.62623278507357
19707,308.59935245056386
19731,309.57555040321705
19755,310.55483638063504
19779,311.5372201512228
19803,312.5227115142859
19827,313.5113203001282
19851,314.50305637015
19875,315.49792961694624
19899,316.4959499644054
19923,317.49712736780833
19947,318.5014718139276
19971,319.5089933211271
19995,320.51970193946204
20019,321.53360775077914
20043,322.55072086881717
20067,323.5710514393079
20091,324.5946096400773
20115,325.621405681147
20139,326.6514498048362
20163,327.6847522858638
20187,328.7213234314509
20211,329.76117358142375
20235,330.80431310831653
20259,331.85075241747523
20283,332.90050194716116
20307,333.9535721686552
20331,335.0099735863623
20355,336.06971673791605
20379,337.13281219428404
20403,338.1992705598731
20427,339.2691024726353
20451,340.3423186041738
20475,341.4189296598495
20499,342.49894637888775
20523,343.58237953448554
20547,344.66923993391885
20571,345.7595384186505
20595,346.85328586443836
20619,347.9504931814438
20643,349.0511713143404
20667,350.15533124242336
20691,351.26298397971874
20715,352.3741405750936
20739,353.48881211236596
20763,354.60700971041564
20787,355.72874452329484
20811,356.8540277403397
20835,357.98287058628176
20859,359.1152843213599
20883,360.2512802414328
20907,361.3908696780915
20931,362.5340639987725
20955,363.68087460687104
20979,364.831312941855
21003,365.9853904793789
21027,367.14311873139843
21051,368.30450924628525
21075,369.4695736089422
21099,370.63832344091884
21123,371.8107704005274
21147,372.9869261829591
21171,374.16680252040067
21195,375.35041118215156
21219,376.53776397474127
21243,377.72887274204703
21267,378.9237493654121
21291,380.1224057637642
21315,381.3248538937344
21339,382.53110574977643
21363,383.74117336428617
21387,384.9550688077219
21411,386.17280418872457
21435,387.3943916542387
21459,388.61984338963333
21483,389.8491716188238
21507,391.0823886043935
21531,392.3195066477163
21555,393.56053808907933
21579,394.8054953078058
21603,396.05439072237886
21627,397.30723679056507
21651,398.56404600953897
21675,399.82483091600767
21699,401.08960408633584
21723,402.35837813667115
21747,403.63116572307024
21771,404.90797954162485
21795,406.1888323285885
21819,407.4737368605035
21843,408.76270595432845
21867,410.0557524675661
21891,411.3528892983915
21915,412.6541293857809
21939,413.9594857096404
21963,415.26897129093584
21987,416.58259919182245
22011,417.90038251577533
22035,419.22233440771987
22059,420.5484680541632
22083,421.87879668332545
22107,423.21333356527185
22131,424.55209201204514
22155,425.8950853777982
22179,427.24232705892734
22203,428.59383049420603
22227,429.94960916491874
22251,431.30967659499566
22275,432.67404635114735
22299,434.0427320430003
22323,435.41574732323244
22347,436.79310588770966
22371,438.174821475622
22395,439.5609078696212
22419,440.95137889595765
22443,442.34624842461875
22467,443.745530369467
22491,445.14923868837894
22515,446.5573873833842
22539,447.96999050080535
22563,449.387062131398
22587,450.80861641049125
22611,452.23466751812873
22635,453.66522967921014
22659,455.10031716363295
22683,456.53994428643495
22707,457.98412540793686
22731,459.4328749338858
